# bin = 20 r=1000 t=9             
# energy = 0.070385 0.245576
0.01 19.0384 210.946
0.21 32.8875 160.511
0.41 38.0052 144.629
0.61 41.2747 134.246
0.81 43.6375 126.438
1.01 45.4535 120.163
1.21 46.9031 114.917
1.41 48.0907 110.412
1.61 49.0823 106.47
1.81 49.9222 102.97
2.01 50.6416 99.826
2.21 51.2634 96.9766
2.41 51.8051 94.374
2.61 52.2792 91.9812
2.81 52.6966 89.7697
3.01 53.0656 87.7156
3.21 53.3924 85.7998
3.41 53.683 84.0064
3.61 53.9417 82.322
3.81 54.1724 80.7349
4.01 54.3783 79.2359
4.21 54.562 77.8167
4.41 54.726 76.4701
4.61 54.8721 75.1894
4.81 55.0027 73.9698
5.01 55.1185 72.8057
5.21 55.2215 71.6928
5.41 55.3123 70.6269
5.61 55.3919 69.6054
5.81 55.4617 68.626
6.01 55.5228 67.6844
6.21 55.5755 66.7782
6.41 55.6204 65.9053
6.61 55.6582 65.064
6.81 55.6892 64.2521
7.01 55.7153 63.4672
7.21 55.7337 62.7092
7.41 55.7479 61.9751
7.61 55.7562 61.2709
7.81 55.7618 60.5762
8.01 55.7624 59.9082
8.21 55.759 59.2599
8.41 55.7517 58.6309
8.61 55.7413 58.0178
8.81 55.7271 57.4254
9.01 55.7114 56.8413
9.21 55.6906 56.2848
9.41 55.6692 55.736
9.61 55.6433 55.2034
9.81 55.6161 54.6839
10.01 55.5863 54.1762
10.21 55.5545 53.6809
10.41 55.5209 53.1967
10.61 55.4859 52.7258
10.81 55.448 52.2641
11.01 55.41 51.8145
11.21 55.3695 51.375
11.41 55.3465 50.936
11.61 55.2842 50.5235
11.81 55.2394 50.1105
12.01 55.2061 49.7041
12.21 55.147 49.3119
12.41 55.0986 48.9258
12.61 55.0505 48.5487
12.81 54.9989 48.1742
13.01 54.9484 47.8101
13.21 54.8967 47.4526
13.41 54.8421 47.1029
13.61 54.7892 46.7585
13.81 54.7354 46.4205
14.01 54.681 46.0887
14.21 54.6232 45.7641
14.41 54.5672 45.4443
14.61 54.5107 45.1307
14.81 54.4533 44.8234
15.01 54.3943 44.517
15.21 54.3358 44.2202
15.41 54.276 43.9279
15.61 54.216 43.6391
15.81 54.1593 43.3696
16.01 54.0954 43.0781
16.21 54.0344 42.8029
16.41 53.9736 42.5334
16.61 53.9111 42.2683
16.81 53.8532 42.0066
17.01 53.7872 41.7488
17.21 53.7241 41.4942
17.41 53.6617 41.2446
17.61 53.5975 40.9986
17.81 53.5295 40.7457
18.01 53.4701 40.5172
18.21 53.4068 40.28
18.41 53.3426 40.0485
18.61 53.2784 39.8186
18.81 53.2152 39.5935
19.01 53.1572 39.336
19.21 53.0853 39.1522
19.41 53.0189 38.9351
19.61 52.9542 38.7204
19.81 52.8885 38.5097
20.01 52.8245 38.3014
20.21 52.7575 38.1014
20.41 52.6941 37.8963
20.61 52.6258 37.694
20.81 52.5614 37.4958
21.01 52.4951 37.3008
21.21 52.4296 37.1095
21.41 52.3621 36.9182
21.61 52.3003 36.7292
21.81 52.2333 36.5415
22.01 52.1647 36.3634
22.21 52.0985 36.1799
22.41 52.0329 36.0023
22.61 51.9668 35.8253
22.81 51.8992 35.65
23.01 51.8352 35.4772
23.21 51.7626 35.3091
23.41 51.6981 35.1404
23.61 51.6359 34.9698
23.81 51.5681 34.8068
24.01 51.5027 34.6421
24.21 51.4365 34.4809
24.41 51.3694 34.3227
24.61 51.3044 34.1629
24.81 51.2361 34.01
25.01 51.1814 33.8417
25.21 51.1079 33.6983
25.41 51.0377 33.5504
25.61 50.974 33.3996
25.81 50.9062 33.252
26.01 50.8405 33.1052
26.21 50.7757 32.9611
26.41 50.7087 32.816
26.61 50.6436 32.6768
26.81 50.5785 32.5308
27.01 50.2788 32.6869
27.21 50.4429 32.2588
27.41 50.3823 32.1213
27.61 50.3141 31.9851
27.81 50.2498 31.8532
28.01 50.1844 31.7189
28.21 50.1195 31.5882
28.41 50.0526 31.4584
28.61 49.9891 31.3311
28.81 49.9234 31.2002
29.01 49.855 31.0791
29.21 49.9318 30.9632
29.41 49.731 30.831
29.61 49.6639 30.702
29.81 49.5973 30.5835
30.01 49.5351 30.4627
30.21 49.4693 30.3417
30.41 49.4044 30.2249
30.61 49.3397 30.1067
30.81 49.2765 29.9919
31.01 49.2132 29.8744
31.21 49.1459 29.7605
31.41 49.0842 29.6518
31.61 49.0301 29.5293
31.81 48.9643 29.4304
32.01 48.8931 29.3105
32.21 48.8263 29.2051
32.41 48.7657 29.0978
32.61 48.7024 28.9879
32.81 48.6372 28.8816
33.01 48.5746 28.7773
33.21 48.5106 28.6714
33.41 48.4486 28.5688
33.61 48.3869 28.4641
33.81 48.3219 28.3605
34.01 48.2575 28.2621
34.21 48.1998 28.1636
34.41 48.1441 28.0516
34.61 48.0832 27.9717
34.81 48.0129 27.8594
35.01 47.945 27.7638
35.21 47.8837 27.6706
35.41 47.8243 27.5741
35.61 47.762 27.4769
35.81 47.6983 27.3826
36.01 47.6365 27.2904
36.21 47.5753 27.1959
36.41 47.5129 27.1049
36.61 47.4529 27.0144
36.81 47.3932 26.9222
37.01 47.3307 26.8297
37.21 47.2659 26.7411
37.41 47.2042 26.6578
37.61 47.156 26.5773
37.81 47.0649 26.4852
38.01 47.0257 26.3973
38.21 46.9687 26.3059
38.41 46.9059 26.2172
38.61 46.8426 26.1327
38.81 46.7818 26.0505
39.01 46.7232 25.9677
39.21 46.6646 25.8839
39.41 46.6045 25.8
39.61 46.5435 25.7198
39.81 46.485 25.6379
40.01 46.4255 25.5557
40.21 46.3645 25.4746
40.41 46.3032 25.3958
40.61 46.2435 25.319
40.81 46.1868 25.2424
41.01 46.1328 25.1637
41.21 46.0799 25.079
41.41 45.8856 25.5473
41.61 45.9592 24.9379
41.81 45.8986 24.8537
42.01 45.8361 24.7757
42.21 45.7744 24.7013
42.41 45.7146 24.6287
42.61 45.6568 24.5565
42.81 45.6002 24.4839
43.01 45.5436 24.4106
43.21 45.4863 24.3372
43.41 45.4282 24.2644
43.61 45.3688 24.1947
43.81 45.3123 24.1238
44.01 45.2559 24.0527
44.21 45.1989 23.9815
44.41 45.1411 23.9106
44.61 45.0823 23.8407
44.81 45.0229 23.7722
45.01 44.9637 23.7055
45.21 44.9054 23.6411
45.41 44.8494 23.5809
45.61 44.8129 23.5698
45.81 44.7274 23.4251
46.01 44.6765 23.3695
46.21 44.6236 23.307
46.41 44.5704 23.2428
46.61 44.5167 23.1779
46.81 44.4623 23.1127
47.01 44.4074 23.0476
47.21 44.3518 22.9828
47.41 44.2959 22.9186
47.61 44.2397 22.8551
47.81 44.1835 22.7923
48.01 44.1275 22.7301
48.21 44.0731 22.6708
48.41 44.0186 22.6091
48.61 43.9642 22.5476
48.81 43.9097 22.4863
49.01 43.8551 22.4252
49.21 43.8003 22.3643
49.41 43.7451 22.3038
49.61 43.6897 22.2436
49.81 43.6338 22.1837

